Time(s),Actual_State_Of_Charge,Estimated_State_Of_Charge
0.01,0.999944,1.000002
0.02,0.999889,0.999618
0.03,0.999833,0.999605
0.04,0.999778,0.999697
0.05,0.999722,0.999717
0.06,0.999667,0.999562
0.07,0.999611,0.999532
0.08,0.999556,0.999574
0.09,0.999500,0.999570
0.10,0.999444,0.999457
0.11,0.999389,0.999389
0.12,0.999333,0.999279
0.13,0.999278,0.999316
0.14,0.999222,0.999185
0.15,0.999167,0.999151
0.16,0.999111,0.999066
0.17,0.999056,0.999021
0.18,0.999000,0.998945
0.19,0.998944,0.998962
0.20,0.998889,0.998938
0.21,0.998833,0.998796
0.22,0.998778,0.998699
0.23,0.998722,0.998683
0.24,0.998667,0.998581
0.25,0.998611,0.998551
0.26,0.998556,0.998490
0.27,0.998500,0.998456
0.28,0.998444,0.998400
0.29,0.998389,0.998313
0.30,0.998333,0.998271
0.31,0.998278,0.998172
0.32,0.998222,0.998150
0.33,0.998167,0.998088
0.34,0.998111,0.998018
0.35,0.998056,0.997979
0.36,0.998000,0.997875
0.37,0.997944,0.997841
0.38,0.997889,0.997810
0.39,0.997833,0.997660
0.40,0.997778,0.997652
0.41,0.997722,0.997550
0.42,0.997667,0.997541
0.43,0.997611,0.997485
0.44,0.997556,0.997483
0.45,0.997500,0.997362
0.46,0.997444,0.997292
0.47,0.997389,0.997184
0.48,0.997333,0.997107
0.49,0.997278,0.997063
0.50,0.997222,0.996980
0.51,0.997167,0.996869
0.52,0.997111,0.996821
0.53,0.997056,0.996694
0.54,0.997000,0.996625
0.55,0.996944,0.996657
0.56,0.996889,0.996569
0.57,0.996833,0.996522
0.58,0.996778,0.996474
0.59,0.996722,0.996496
0.60,0.996667,0.996458
0.61,0.996611,0.996516
0.62,0.996556,0.996463
0.63,0.996500,0.996446
0.64,0.996444,0.996440
0.65,0.996389,0.996368
0.66,0.996333,0.996319
0.67,0.996278,0.996218
0.68,0.996222,0.996162
0.69,0.996167,0.996116
0.70,0.996111,0.995985
0.71,0.996056,0.996007
0.72,0.996000,0.996017
0.73,0.995944,0.995894
0.74,0.995889,0.995797
0.75,0.995833,0.995768
0.76,0.995778,0.995671
0.77,0.995722,0.995520
0.78,0.995667,0.995447
0.79,0.995611,0.995392
0.80,0.995556,0.995376
0.81,0.995500,0.995281
0.82,0.995444,0.995170
0.83,0.995389,0.995182
0.84,0.995333,0.995199
0.85,0.995278,0.995071
0.86,0.995222,0.995072
0.87,0.995167,0.995014
0.88,0.995111,0.994996
0.89,0.995056,0.995041
0.90,0.995000,0.995094
0.91,0.994944,0.995072
0.92,0.994889,0.995127
0.93,0.994833,0.994995
0.94,0.994778,0.994928
0.95,0.994722,0.994871
0.96,0.994667,0.994869
0.97,0.994611,0.994885
0.98,0.994556,0.994692
0.99,0.994500,0.994496
1.00,0.994444,0.994301
1.01,0.994389,0.994101
1.02,0.994333,0.994030
1.03,0.994278,0.993883
1.04,0.994222,0.993791
1.05,0.994167,0.993747
1.06,0.994111,0.993558
1.07,0.994056,0.993414
1.08,0.994000,0.993351
1.09,0.993944,0.993491
1.10,0.993889,0.993530
1.11,0.993833,0.993516
1.12,0.993778,0.993285
1.13,0.993722,0.993123
1.14,0.993667,0.993028
1.15,0.993611,0.993169
1.16,0.993556,0.993316
1.17,0.993500,0.993483
1.18,0.993444,0.993362
1.19,0.993389,0.993303
1.20,0.993333,0.993337
1.21,0.993278,0.993339
1.22,0.993222,0.993411
1.23,0.993167,0.993491
1.24,0.993111,0.993458
1.25,0.993056,0.993326
1.26,0.993000,0.993120
1.27,0.992944,0.993146
1.28,0.992889,0.993036
1.29,0.992833,0.993120
1.30,0.992778,0.993094
1.31,0.992722,0.993078
1.32,0.992667,0.992925
1.33,0.992611,0.993095
1.34,0.992556,0.992978
1.35,0.992500,0.992992
1.36,0.992444,0.993038
1.37,0.992389,0.993216
1.38,0.992333,0.993129
1.39,0.992278,0.992829
1.40,0.992222,0.992708
1.41,0.992167,0.992804
1.42,0.992111,0.992734
1.43,0.992056,0.992622
1.44,0.992000,0.992544
1.45,0.991944,0.992695
1.46,0.991889,0.992686
1.47,0.991833,0.992564
1.48,0.991778,0.992410
1.49,0.991722,0.992432
1.50,0.991667,0.992420
1.51,0.991611,0.992386
1.52,0.991556,0.992525
1.53,0.991500,0.992417
1.54,0.991444,0.992317
1.55,0.991389,0.992121
1.56,0.991333,0.992092
1.57,0.991278,0.991955
1.58,0.991222,0.991788
1.59,0.991167,0.991984
1.60,0.991111,0.991986
1.61,0.991056,0.991893
1.62,0.991000,0.991895
1.63,0.990944,0.992137
1.64,0.990889,0.992126
1.65,0.990833,0.992043
1.66,0.990778,0.992228
1.67,0.990722,0.992139
1.68,0.990667,0.991800
1.69,0.990611,0.991711
1.70,0.990556,0.991829
1.71,0.990500,0.991672
1.72,0.990444,0.991754
1.73,0.990389,0.991425
1.74,0.990333,0.991298
1.75,0.990278,0.991144
1.76,0.990222,0.991025
1.77,0.990167,0.991081
1.78,0.990111,0.991122
1.79,0.990056,0.991136
1.80,0.990000,0.991054
1.81,0.989944,0.990953
1.82,0.989889,0.991048
1.83,0.989833,0.991012
1.84,0.989778,0.991076
1.85,0.989722,0.990940
1.86,0.989667,0.990755
1.87,0.989611,0.990685
1.88,0.989556,0.990630
1.89,0.989500,0.990565
1.90,0.989444,0.990462
1.91,0.989389,0.990380
1.92,0.989333,0.990525
1.93,0.989278,0.990195
1.94,0.989222,0.990111
1.95,0.989167,0.989822
1.96,0.989111,0.989812
1.97,0.989056,0.989890
1.98,0.989000,0.989859
1.99,0.988944,0.990151
2.00,0.988889,0.990087
2.01,0.988833,0.990213
2.02,0.988778,0.990292
2.03,0.988722,0.990557
2.04,0.988667,0.990437
2.05,0.988611,0.990139
2.06,0.988556,0.990099
2.07,0.988500,0.989850
2.08,0.988444,0.989662
2.09,0.988389,0.989596
2.10,0.988333,0.989728
2.11,0.988278,0.989405
2.12,0.988222,0.989354
2.13,0.988167,0.989119
2.14,0.988111,0.989217
2.15,0.988056,0.989209
2.16,0.988000,0.989002
2.17,0.987944,0.989160
2.18,0.987889,0.989060
2.19,0.987833,0.989190
2.20,0.987778,0.989000
2.21,0.987722,0.988826
2.22,0.987667,0.989061
2.23,0.987611,0.989168
2.24,0.987556,0.989276
2.25,0.987500,0.989309
2.26,0.987444,0.989004
2.27,0.987389,0.989277
2.28,0.987333,0.989039
2.29,0.987278,0.989161
2.30,0.987222,0.989441
2.31,0.987167,0.989554
2.32,0.987111,0.989419
2.33,0.987056,0.989231
2.34,0.987000,0.989123
2.35,0.986944,0.989002
2.36,0.986889,0.988796
2.37,0.986833,0.988671
2.38,0.986778,0.988632
2.39,0.986722,0.988588
2.40,0.986667,0.988404
2.41,0.986611,0.988686
2.42,0.986556,0.988890
2.43,0.986500,0.989088
2.44,0.986444,0.988797
2.45,0.986389,0.988531
2.46,0.986333,0.988195
2.47,0.986278,0.987969
2.48,0.986222,0.988019
2.49,0.986167,0.987960
2.50,0.986111,0.988008
2.51,0.986056,0.988079
2.52,0.986000,0.987610
2.53,0.985944,0.987336
2.54,0.985889,0.987199
2.55,0.985833,0.986937
2.56,0.985778,0.986749
2.57,0.985722,0.986773
2.58,0.985667,0.986993
2.59,0.985611,0.986899
2.60,0.985556,0.986803
2.61,0.985500,0.986297
2.62,0.985444,0.986445
2.63,0.985389,0.986248
2.64,0.985333,0.986076
2.65,0.985278,0.986015
2.66,0.985222,0.985775
2.67,0.985167,0.985628
2.68,0.985111,0.985501
2.69,0.985056,0.985463
2.70,0.985000,0.985156
2.71,0.984944,0.985048
2.72,0.984889,0.985432
2.73,0.984833,0.985087
2.74,0.984778,0.984573
2.75,0.984722,0.984486
2.76,0.984667,0.984570
2.77,0.984611,0.984579
2.78,0.984556,0.984380
2.79,0.984500,0.984247
2.80,0.984444,0.984114
2.81,0.984389,0.984124
2.82,0.984333,0.984258
2.83,0.984278,0.984319
2.84,0.984222,0.983870
2.85,0.984167,0.983912
2.86,0.984111,0.984023
2.87,0.984056,0.983705
2.88,0.984000,0.983635
2.89,0.983944,0.983544
2.90,0.983889,0.983806
2.91,0.983833,0.983857
2.92,0.983778,0.983923
2.93,0.983722,0.984040
2.94,0.983667,0.984156
2.95,0.983611,0.984087
2.96,0.983556,0.983990
2.97,0.983500,0.983624
2.98,0.983444,0.983675
2.99,0.983389,0.983713
3.00,0.983333,0.983460
3.01,0.983278,0.983205
3.02,0.983222,0.983267
3.03,0.983167,0.983129
3.04,0.983111,0.983038
3.05,0.983056,0.982752
3.06,0.983000,0.982645
3.07,0.982944,0.982912
3.08,0.982889,0.982744
3.09,0.982833,0.982874
3.10,0.982778,0.982653
3.11,0.982722,0.982929
3.12,0.982667,0.982765
3.13,0.982611,0.982790
3.14,0.982556,0.982626
3.15,0.982500,0.982294
3.16,0.982444,0.982323
3.17,0.982389,0.982313
3.18,0.982333,0.982202
3.19,0.982278,0.982181
3.20,0.982222,0.982112
3.21,0.982167,0.982526
3.22,0.982111,0.982177
3.23,0.982056,0.982449
3.24,0.982000,0.981933
3.25,0.981944,0.981559
3.26,0.981889,0.981575
3.27,0.981833,0.981538
3.28,0.981778,0.981693
3.29,0.981722,0.982161
3.30,0.981667,0.982702
3.31,0.981611,0.982894
3.32,0.981556,0.982625
3.33,0.981500,0.982522
3.34,0.981444,0.982495
3.35,0.981389,0.982413
3.36,0.981333,0.982346
3.37,0.981278,0.982616
3.38,0.981222,0.982105
3.39,0.981167,0.981942
3.40,0.981111,0.982522
3.41,0.981056,0.982514
3.42,0.981000,0.982385
3.43,0.980944,0.982397
3.44,0.980889,0.982136
3.45,0.980833,0.982005
3.46,0.980778,0.981812
3.47,0.980722,0.981760
3.48,0.980667,0.981759
3.49,0.980611,0.981180
3.50,0.980556,0.981505
3.51,0.980500,0.981447
3.52,0.980444,0.981489
3.53,0.980389,0.981890
3.54,0.980333,0.982339
3.55,0.980278,0.982538
3.56,0.980222,0.981812
3.57,0.980167,0.981654
3.58,0.980111,0.981386
3.59,0.980056,0.981207
3.60,0.980000,0.981377
3.61,0.979944,0.981378
3.62,0.979889,0.980829
3.63,0.979833,0.980747
3.64,0.979778,0.980334
3.65,0.979722,0.979956
3.66,0.979667,0.980023
3.67,0.979611,0.979421
3.68,0.979556,0.979724
3.69,0.979500,0.979929
3.70,0.979444,0.980157
3.71,0.979389,0.980030
3.72,0.979333,0.979662
3.73,0.979278,0.979811
3.74,0.979222,0.980011
3.75,0.979167,0.980007
3.76,0.979111,0.980220
3.77,0.979056,0.980217
3.78,0.979000,0.979809
3.79,0.978944,0.979680
3.80,0.978889,0.979048
3.81,0.978833,0.979046
3.82,0.978778,0.979319
3.83,0.978722,0.979541
3.84,0.978667,0.978743
3.85,0.978611,0.978312
3.86,0.978556,0.978036
3.87,0.978500,0.977847
3.88,0.978444,0.977584
3.89,0.978389,0.977836
3.90,0.978333,0.977643
3.91,0.978278,0.977389
3.92,0.978222,0.977603
3.93,0.978167,0.977812
3.94,0.978111,0.977522
3.95,0.978056,0.977321
3.96,0.978000,0.977635
3.97,0.977944,0.977899
3.98,0.977889,0.977799
3.99,0.977833,0.977352
4.00,0.977778,0.977445
4.01,0.977722,0.977572
4.02,0.977667,0.977214
4.03,0.977611,0.977370
4.04,0.977556,0.977186
4.05,0.977500,0.976920
4.06,0.977444,0.976740
4.07,0.977389,0.976903
4.08,0.977333,0.976863
4.09,0.977278,0.976359
4.10,0.977222,0.975787
4.11,0.977167,0.975384
4.12,0.977111,0.975744
4.13,0.977056,0.975705
4.14,0.977000,0.975728
4.15,0.976944,0.975594
4.16,0.976889,0.975897
4.17,0.976833,0.976042
4.18,0.976778,0.975423
4.19,0.976722,0.975411
4.20,0.976667,0.974594
4.21,0.976611,0.974030
4.22,0.976556,0.974604
4.23,0.976500,0.974588
4.24,0.976444,0.974363
4.25,0.976389,0.974415
4.26,0.976333,0.974462
4.27,0.976278,0.974208
4.28,0.976222,0.974512
4.29,0.976167,0.974008
4.30,0.976111,0.973729
4.31,0.976056,0.973135
4.32,0.976000,0.973326
4.33,0.975944,0.973663
4.34,0.975889,0.973604
4.35,0.975833,0.973996
4.36,0.975778,0.973686
4.37,0.975722,0.973395
4.38,0.975667,0.973257
4.39,0.975611,0.972664
4.40,0.975556,0.972275
4.41,0.975500,0.972002
4.42,0.975444,0.971345
4.43,0.975389,0.970755
4.44,0.975333,0.970566
4.45,0.975278,0.970338
4.46,0.975222,0.970377
4.47,0.975167,0.970602
4.48,0.975111,0.970401
4.49,0.975056,0.969943
4.50,0.975000,0.969594
4.51,0.974944,0.969934
4.52,0.974889,0.970254
4.53,0.974833,0.970187
4.54,0.974778,0.969472
4.55,0.974722,0.969469
4.56,0.974667,0.969814
4.57,0.974611,0.969114
4.58,0.974556,0.968859
4.59,0.974500,0.969107
4.60,0.974444,0.969070
4.61,0.974389,0.969043
4.62,0.974333,0.969875
4.63,0.974278,0.969482
4.64,0.974222,0.968962
4.65,0.974167,0.968909
4.66,0.974111,0.968607
4.67,0.974056,0.969112
4.68,0.974000,0.968953
4.69,0.973944,0.969009
4.70,0.973889,0.968589
4.71,0.973833,0.968929
4.72,0.973778,0.968255
4.73,0.973722,0.967955
4.74,0.973667,0.967648
4.75,0.973611,0.967653
4.76,0.973556,0.968010
4.77,0.973500,0.967954
4.78,0.973444,0.968531
4.79,0.973389,0.968473
4.80,0.973333,0.968388
4.81,0.973278,0.968328
4.82,0.973222,0.968409
4.83,0.973167,0.969020
4.84,0.973111,0.969101
4.85,0.973056,0.969550
4.86,0.973000,0.968736
4.87,0.972944,0.969047
4.88,0.972889,0.968898
4.89,0.972833,0.969015
4.90,0.972778,0.968776
4.91,0.972722,0.969343
4.92,0.972667,0.969794
4.93,0.972611,0.969782
4.94,0.972556,0.970265
4.95,0.972500,0.970174
4.96,0.972444,0.970206
4.97,0.972389,0.970691
4.98,0.972333,0.970696
4.99,0.972278,0.971365
5.00,0.972222,0.970976
5.01,0.972222,0.970955
5.02,0.972222,0.971440
5.03,0.972222,0.970691
5.04,0.972222,0.970114
5.05,0.972222,0.969539
5.06,0.972222,0.970143
5.07,0.972222,0.970658
5.08,0.972222,0.970973
5.09,0.972222,0.970828
5.10,0.972222,0.970704
5.11,0.972222,0.969926
5.12,0.972222,0.969701
5.13,0.972222,0.969366
5.14,0.972222,0.969484
5.15,0.972222,0.969030
5.16,0.972222,0.968796
5.17,0.972222,0.967973
5.18,0.972222,0.967089
5.19,0.972222,0.967063
5.20,0.972222,0.966747
5.21,0.972222,0.965961
5.22,0.972222,0.966459
5.23,0.972222,0.967428
5.24,0.972222,0.968007
5.25,0.972222,0.968046
5.26,0.972222,0.967613
5.27,0.972222,0.967695
5.28,0.972222,0.967136
5.29,0.972222,0.967160
5.30,0.972222,0.966390
5.31,0.972222,0.966972
5.32,0.972222,0.967566
5.33,0.972222,0.967182
5.34,0.972222,0.967061
5.35,0.972222,0.967760
5.36,0.972222,0.968738
5.37,0.972222,0.968727
5.38,0.972222,0.968547
5.39,0.972222,0.969029
5.40,0.972222,0.968643
5.41,0.972222,0.968749
5.42,0.972222,0.967760
5.43,0.972222,0.968129
5.44,0.972222,0.968085
5.45,0.972222,0.969021
5.46,0.972222,0.969068
5.47,0.972222,0.969366
5.48,0.972222,0.969299
5.49,0.972222,0.969681
5.50,0.972222,0.970110
5.51,0.972222,0.970330
5.52,0.972222,0.970127
5.53,0.972222,0.969540
5.54,0.972222,0.969279
5.55,0.972222,0.969171
5.56,0.972222,0.968750
5.57,0.972222,0.968881
5.58,0.972222,0.969129
5.59,0.972222,0.969967
5.60,0.972222,0.970186
5.61,0.972222,0.970745
5.62,0.972222,0.970311
5.63,0.972222,0.971028
5.64,0.972222,0.971079
5.65,0.972222,0.970993
5.66,0.972222,0.970986
5.67,0.972222,0.970342
5.68,0.972222,0.970433
5.69,0.972222,0.970104
5.70,0.972222,0.970375
5.71,0.972222,0.970233
5.72,0.972222,0.970493
5.73,0.972222,0.969964
5.74,0.972222,0.969800
5.75,0.972222,0.969054
5.76,0.972222,0.968774
5.77,0.972222,0.969009
5.78,0.972222,0.969409
5.79,0.972222,0.969189
5.80,0.972222,0.969726
5.81,0.972222,0.969032
5.82,0.972222,0.968353
5.83,0.972222,0.967912
5.84,0.972222,0.968388
5.85,0.972222,0.968148
5.86,0.972222,0.969021
5.87,0.972222,0.969382
5.88,0.972222,0.970004
5.89,0.972222,0.970071
5.90,0.972222,0.970963
5.91,0.972222,0.970863
5.92,0.972222,0.970812
5.93,0.972222,0.970273
5.94,0.972222,0.970696
5.95,0.972222,0.970538
5.96,0.972222,0.970457
5.97,0.972222,0.970071
5.98,0.972222,0.969151
5.99,0.972222,0.969582
6.00,0.972222,0.970480
6.01,0.972222,0.969362
6.02,0.972222,0.970277
6.03,0.972222,0.970958
6.04,0.972222,0.971510
6.05,0.972222,0.971404
6.06,0.972222,0.971362
6.07,0.972222,0.970525
6.08,0.972222,0.971251
6.09,0.972222,0.970801
6.10,0.972222,0.971787
6.11,0.972222,0.972586
6.12,0.972222,0.973110
6.13,0.972222,0.972581
6.14,0.972222,0.973056
6.15,0.972222,0.972990
6.16,0.972222,0.972614
6.17,0.972222,0.973511
6.18,0.972222,0.973541
6.19,0.972222,0.974143
6.20,0.972222,0.974126
6.21,0.972222,0.974052
6.22,0.972222,0.974218
6.23,0.972222,0.973445
6.24,0.972222,0.973856
6.25,0.972222,0.972857
6.26,0.972222,0.971968
6.27,0.972222,0.971909
6.28,0.972222,0.971815
6.29,0.972222,0.971545
6.30,0.972222,0.970923
6.31,0.972222,0.970504
6.32,0.972222,0.971343
6.33,0.972222,0.971635
6.34,0.972222,0.972078
6.35,0.972222,0.971678
6.36,0.972222,0.971780
6.37,0.972222,0.971914
6.38,0.972222,0.972370
6.39,0.972222,0.972474
6.40,0.972222,0.972428
6.41,0.972222,0.971518
6.42,0.972222,0.972075
6.43,0.972222,0.972312
6.44,0.972222,0.972486
6.45,0.972222,0.973151
6.46,0.972222,0.972863
6.47,0.972222,0.973514
6.48,0.972222,0.974357
6.49,0.972222,0.975472
6.50,0.972222,0.974863
6.51,0.972222,0.974843
6.52,0.972222,0.974983
6.53,0.972222,0.974026
6.54,0.972222,0.973396
6.55,0.972222,0.973330
6.56,0.972222,0.973007
6.57,0.972222,0.972418
6.58,0.972222,0.971766
6.59,0.972222,0.970943
6.60,0.972222,0.970971
6.61,0.972222,0.971661
6.62,0.972222,0.972407
6.63,0.972222,0.972894
6.64,0.972222,0.973015
6.65,0.972222,0.973132
6.66,0.972222,0.973187
6.67,0.972222,0.972405
6.68,0.972222,0.973210
6.69,0.972222,0.972834
6.70,0.972222,0.973512
6.71,0.972222,0.973722
6.72,0.972222,0.973172
6.73,0.972222,0.974268
6.74,0.972222,0.974231
6.75,0.972222,0.973559
6.76,0.972222,0.974164
6.77,0.972222,0.974379
6.78,0.972222,0.974370
6.79,0.972222,0.974524
6.80,0.972222,0.974155
6.81,0.972222,0.975185
6.82,0.972222,0.974500
6.83,0.972222,0.974519
6.84,0.972222,0.974175
6.85,0.972222,0.973038
6.86,0.972222,0.973539
6.87,0.972222,0.973849
6.88,0.972222,0.973978
6.89,0.972222,0.974185
6.90,0.972222,0.974490
6.91,0.972222,0.974793
6.92,0.972222,0.974594
6.93,0.972222,0.974968
6.94,0.972222,0.975583
6.95,0.972222,0.976672
6.96,0.972222,0.976577
6.97,0.972222,0.976258
6.98,0.972222,0.976572
6.99,0.972222,0.976175
7.00,0.972222,0.976200
7.01,0.972222,0.976351
7.02,0.972222,0.976801
7.03,0.972222,0.976956
7.04,0.972222,0.977280
7.05,0.972222,0.977862
7.06,0.972222,0.977258
7.07,0.972222,0.976941
7.08,0.972222,0.976078
7.09,0.972222,0.977021
7.10,0.972222,0.976904
7.11,0.972222,0.976239
7.12,0.972222,0.976076
7.13,0.972222,0.975476
7.14,0.972222,0.975093
7.15,0.972222,0.975216
7.16,0.972222,0.975089
7.17,0.972222,0.975788
7.18,0.972222,0.976044
7.19,0.972222,0.976954
7.20,0.972222,0.976573
7.21,0.972222,0.977003
7.22,0.972222,0.977378
7.23,0.972222,0.977706
7.24,0.972222,0.979033
7.25,0.972222,0.978446
7.26,0.972222,0.978348
7.27,0.972222,0.978928
7.28,0.972222,0.979139
7.29,0.972222,0.978265
7.30,0.972222,0.979570
7.31,0.972222,0.978915
7.32,0.972222,0.979809
7.33,0.972222,0.980556
7.34,0.972222,0.981585
7.35,0.972222,0.981835
7.36,0.972222,0.981844
7.37,0.972222,0.982962
7.38,0.972222,0.983518
7.39,0.972222,0.983597
7.40,0.972222,0.983687
7.41,0.972222,0.983587
7.42,0.972222,0.983354
7.43,0.972222,0.982914
7.44,0.972222,0.982557
7.45,0.972222,0.982153
7.46,0.972222,0.983252
7.47,0.972222,0.982136
7.48,0.972222,0.981788
7.49,0.972222,0.982509
7.50,0.972222,0.983226
7.51,0.972222,0.982348
7.52,0.972222,0.982204
7.53,0.972222,0.981637
7.54,0.972222,0.982560
7.55,0.972222,0.982119
7.56,0.972222,0.982145
7.57,0.972222,0.982381
7.58,0.972222,0.982839
7.59,0.972222,0.983972
7.60,0.972222,0.983224
7.61,0.972222,0.982797
7.62,0.972222,0.983145
7.63,0.972222,0.982646
7.64,0.972222,0.982000
7.65,0.972222,0.982241
7.66,0.972222,0.982407
7.67,0.972222,0.983306
7.68,0.972222,0.983884
7.69,0.972222,0.984292
7.70,0.972222,0.983184
7.71,0.972222,0.984418
7.72,0.972222,0.985277
7.73,0.972222,0.986100
7.74,0.972222,0.986866
7.75,0.972222,0.986818
7.76,0.972222,0.987008
7.77,0.972222,0.985986
7.78,0.972222,0.986319
7.79,0.972222,0.987342
7.80,0.972222,0.986773
7.81,0.972222,0.987341
7.82,0.972222,0.987108
7.83,0.972222,0.986941
7.84,0.972222,0.985943
7.85,0.972222,0.986997
7.86,0.972222,0.986608
7.87,0.972222,0.987217
7.88,0.972222,0.987253
7.89,0.972222,0.987292
7.90,0.972222,0.987092
7.91,0.972222,0.986807
7.92,0.972222,0.986967
7.93,0.972222,0.987197
7.94,0.972222,0.988462
7.95,0.972222,0.989721
7.96,0.972222,0.990158
7.97,0.972222,0.989627
7.98,0.972222,0.990517
7.99,0.972222,0.990741
8.00,0.972222,0.989924
8.01,0.972222,0.990104
8.02,0.972222,0.991136
8.03,0.972222,0.991027
8.04,0.972222,0.990902
8.05,0.972222,0.990745
8.06,0.972222,0.989588
8.07,0.972222,0.990610
8.08,0.972222,0.990595
8.09,0.972222,0.989645
8.10,0.972222,0.989882
8.11,0.972222,0.989519
8.12,0.972222,0.988713
8.13,0.972222,0.988600
8.14,0.972222,0.987711
8.15,0.972222,0.988260
8.16,0.972222,0.988378
8.17,0.972222,0.989229
8.18,0.972222,0.988844
8.19,0.972222,0.988304
8.20,0.972222,0.988766
8.21,0.972222,0.987809
8.22,0.972222,0.987593
8.23,0.972222,0.988185
8.24,0.972222,0.988160
8.25,0.972222,0.987599
8.26,0.972222,0.988915
8.27,0.972222,0.988405
8.28,0.972222,0.987805
8.29,0.972222,0.986885
8.30,0.972222,0.987725
